Process Time [min],Average emission wavelength [nm],Integral,Max emission wavelength [nm],diff_AEW_raw,diff_AEW_sgol,diff_AEW_loess,AEW_adapted,dAEW_adapted
0.783333,336.606064480769,165271.407,326.5,2.172075528436251,2.049658880820937,2.107897787250803,336.606064480769,0.0
2.36667,336.5487456882529,163348.055,325,2.172075528436251,2.049658880820937,2.107897787250803,336.5487456882529,-0.057318792516127814
3.93333,336.5019557098809,161432.3,326,1.7919642438809638,1.9673225994060277,1.9816354290088638,336.5019557098809,-0.10410877088810366
5.5,336.4477948428594,159838.6325,325,2.0742415577560362,1.7395198480506386,1.8402858619377305,336.4477948428594,-0.1582696379095978
7.08333,336.4108495662774,158221.255,326,1.4000344810748047,1.5164889257072303,1.6939964386843256,336.4108495662774,-0.19521491449160067
8.65,336.3664333574592,156568.7015,325.5,1.7010426759266664,1.3103911750775075,1.4361384094958507,336.3664333574592,-0.2396311233098345
10.2333,336.3360375490426,155086.4165,325.5,1.1518654108476842,1.1466646533173652,1.175200497108702,336.3360375490426,-0.2700269317264201
11.8,336.315137582917,153757.6235,324.5,0.8004072046579064,1.0605753615022846,1.0685436879285,336.315137582917,-0.29092689785204584
13.3667,336.2831661668068,152354.009,324,1.2244111614295896,1.029298864716493,1.0328892437008519,336.2831661668068,-0.32289831396224145
14.9333,336.2530350766681,151076.42,324.5,1.1540057502372858,1.0418217801722143,1.070303082880499,336.2530350766681,-0.35302940410093697
16.5,336.2303424688172,149912.2385,324.5,0.8690601079044943,1.0247416414015518,1.0446648524413136,336.2303424688172,-0.3757220119518365
18.1,336.2027802278192,148673.902,324.5,1.0335840374253278,0.9440453464262031,0.9783272644889922,336.2027802278192,-0.40328425294984527
19.6667,336.1765415195167,147695.503,324,1.0048653208319833,0.8385234678999421,0.9151385869957696,336.1765415195167,-0.42952296125230305
21.25,336.1569584255511,146702.867,325,0.7421118157870306,0.7321985608938042,0.8022594828158198,336.1569584255511,-0.4491060552178965
22.8167,336.1407333715655,145816.454,323.5,0.6213718255812565,0.6783704535015612,0.6558158493579356,336.1407333715655,-0.4653311092035324
24.4,336.1226768405775,144877.421,322.5,0.6842618955837525,0.6452957419583635,0.6258553569687653,336.1226768405775,-0.48338764019149494
25.9667,336.1085003588326,144044.1535,324.5,0.5429175366665863,0.6362545203141332,0.6714590051926526,336.1085003588326,-0.49756412193642063
27.55,336.0856112703772,143129.47,323,0.8673942445034573,0.6585873259622687,0.6623443150835697,336.0856112703772,-0.5204532103917927
29.1167,336.0716934679034,142387.5085,322.5,0.5330108817448308,0.6921401055633056,0.6782757989349939,336.0716934679034,-0.5343710128656198
30.7,336.055142503402,141634.1035,325,0.6272076486348004,0.6533343983583733,0.6492769613150484,336.055142503402,-0.5509219773670111
32.2667,336.0345950104867,140959.2545,323.5,0.7869085178509287,0.5822298316092673,0.616519495821449,336.0345950104867,-0.5714694702822953
33.85,336.0244510977337,140266.879,324,0.3844089971471414,0.5085113643736149,0.6046538758532378,336.0244510977337,-0.5816133830353465
35.4333,336.0066170577705,139554.883,323.5,0.6758304792467879,0.45411564969231505,0.4780010241553292,336.0066170577705,-0.5994474229985371
37,335.997617319449,139062.751,322.5,0.3446634960684125,0.463462884869717,0.39784278653760907,335.997617319449,-0.6084471613200435
38.5667,335.9905603268551,138497.904,323,0.2702620512122008,0.44246882830160833,0.41383598165466395,335.9905603268551,-0.6155041539139461
40.15,335.9754463998756,137897.8095,322.5,0.5727503434407368,0.4306569192543923,0.46422811943129183,335.9754463998756,-0.6306180808934414
41.7333,335.9599228567076,137317.3915,323,0.5882729679025273,0.45967546989944424,0.5216544066620443,335.9599228567076,-0.6461416240614426
43.3167,335.9504133565977,136838.7555,323,0.36034483174903764,0.4303178612033176,0.44379986137156324,335.9504133565977,-0.6556511241712997
44.8833,335.9396378134689,136322.8615,322.5,0.41269793676099714,0.42221360897411275,0.3528945191979673,335.9396378134689,-0.6664266673001293
46.45,335.9332724284183,135855.1765,324,0.24377551735130948,0.3875642868524762,0.39784760377637296,335.9332724284183,-0.6727920523507009
48.0333,335.9185782159159,135416.7805,322.5,0.5568450389351574,0.3693784798328725,0.4005738101615428,335.9185782159159,-0.6874862648531348
49.6167,335.9070893022431,134980.796,322,0.43535102966246375,0.3345806418310174,0.37285698989182947,335.9070893022431,-0.6989751785259273
51.1833,335.9055545286004,134569.4145,322.5,0.05878106636057978,0.3029550809271812,0.33802191406043836,335.9055545286004,-0.700509952168602
52.7667,335.8910433546582,134110.4025,323,0.5498739652215366,0.25077118239611246,0.25770421919150266,335.8910433546582,-0.7150211261107984
54.35,335.8877267570052,133767.0845,323.5,0.12568424125549876,0.23897424786405,0.22716790661625197,335.8877267570052,-0.7183377237637956
55.9167,335.8836237034038,133386.5645,323,0.15713487973694018,0.2956814172508425,0.23874767433938615,335.8836237034038,-0.7224407773651933
57.5,335.8758514202907,133027.6605,323,0.294534823967416,0.3168296691993868,0.2876577101130403,335.8758514202907,-0.7302130604783201
59.0833,335.8615562858274,132695.7545,323,0.5417217632772817,0.3146329228710762,0.3657005440716148,335.8615562858274,-0.7445081949416021
60.6667,335.857564109167,132279.165,322,0.15127611445259073,0.30279375673213144,0.3717070897037331,335.857564109167,-0.748500371602006
62.25,335.8464281733688,131968.1765,323,0.4220022408219154,0.28705318423776605,0.24237314217228345,335.8464281733688,-0.7596363074002284
63.8333,335.8418446836773,131675.4515,321,0.17369379238817048,0.20502303584334178,0.2009876126648038,335.8418446836773,-0.7642197970916982
65.4,335.8425484633016,131383.3415,323,0.0,0.19518352717841242,0.23026611525353324,335.8425484633016,-0.7635160174673956
66.9667,335.8269797004244,131138.375,321.5,0.5962378072605319,0.19595119194576713,0.20128242242284777,335.8269797004244,-0.7790847803446468
68.55,335.8270909388577,130825.3615,322,0.0,0.20370179859940718,0.20968409789330433,335.8270909388577,-0.7789735419113413
70.15,335.8233659232691,130546.613,322.5,0.13968808457249704,0.22448621640633737,0.20346807238333042,335.8233659232691,-0.7826985574999412
71.7333,335.8149412783977,130312.1115,321.5,0.3192564215759869,0.24980751746829913,0.2040109532069021,335.8149412783977,-0.7911232023712955
73.3167,335.8068456205751,130094.4895,322.5,0.3067699061254451,0.19739526908653934,0.24053849356664614,335.8068456205751,-0.7992188601939461
74.9,335.8071623705638,129798.4445,322.5,0.0,0.15976968183919044,0.2302123988111333,335.8071623705638,-0.7989021102052334
76.4833,335.7969185199511,129537.173,322,0.3881961957699774,0.1314386300099272,0.1513950966235278,335.7969185199511,-0.8091459608179434
78.0667,335.7948518652183,129398.6495,323,0.07831203989392006,0.08648607689414574,0.07483770793092503,335.7948518652183,-0.811212615550744
79.65,335.799071345261,129185.127,322.5,0.0,0.1129283606443933,0.06019409616857274,335.799071345261,-0.8069931355080371
81.2333,335.7935984700596,128997.256,323.5,0.2073975317907813,0.12854673459079677,0.09799868943958501,335.7935984700596,-0.8124660107094428
82.8167,335.7852765230348,128735.9215,321.5,0.3153447148464136,0.173162719528432,0.20957782740092057,335.7852765230348,-0.8207879577342396
84.4,335.783558550998,128505.4485,323,0.06510346883491991,0.17450770327458648,0.22189286310677403,335.783558550998,-0.8225059297710118
85.9833,335.7760674767885,128352.426,321.5,0.2838782622180442,0.19444019052962344,0.1303379095510877,335.7760674767885,-0.8299970039805089
87.5667,335.7757373184917,128181.7545,321.5,0.012510735006948147,0.13158984865035572,0.1466971170451199,335.7757373184917,-0.8303271622773423
89.15,335.7721744690948,127952.9085,321.5,0.13501608274634827,0.09313581134394402,0.13760490528009228,335.7721744690948,-0.8338900116742138
90.7333,335.7636006968276,127852.2905,323.5,0.32490768397137404,0.1264074349088607,0.11762868837053908,335.7636006968276,-0.8424637839414117
92.3167,335.7685771806854,127610.9005,320,0.0,0.13158792498076083,0.11168965360094774,335.7685771806854,-0.8374873000836374
93.8833,335.7596372493312,127487.805,322.5,0.34239491973104413,0.13948864430966548,0.10279827609910797,335.7596372493312,-0.846427231437815
95.4667,335.7600833479157,127299.3775,322,0.0,0.1327528423997251,0.1827508356684575,335.7600833479157,-0.8459811328532965
97.05,335.7501088688944,127145.714,323.5,0.3779882152962599,0.1505507997533412,0.16824733730845765,335.7501088688944,-0.8559556118746059
98.6333,335.7491840827635,126936.6865,322,0.03504526486054322,0.18978538840384523,0.1288734696071856,335.7491840827635,-0.8568803980055009
100.233,335.748681760915,126778.881,323.5,0.018840601931640062,0.14482721274033972,0.1261084412220157,335.748681760915,-0.8573827198540016
101.817,335.7400454716267,126654.86,320.5,0.32713217001314965,0.10120234368466387,0.16071726010987675,335.7400454716267,-0.8660190091423488
103.4,335.7388480185328,126544.593,322,0.04538672497334483,0.09356483917078083,0.17794731348527648,335.7388480185328,-0.8672164622362288
104.983,335.7317006569854,126503.874,321.5,0.2709044174618248,0.05216173894239761,0.03262174956239505,335.7317006569854,-0.8743638237835967
106.567,335.7388720999689,126340.016,322,0.0,0.12399473804690521,0.01934282395734499,335.7388720999689,-0.8671923808001338
108.15,335.7364729734745,126259.3915,322.5,0.09093341103098383,0.10440827619263596,0.09003750428023949,335.7364729734745,-0.8695915072945013
109.733,335.7236337664971,126211.5985,321.5,0.4866408203706744,0.14063839501758302,0.1619398163136907,335.7236337664971,-0.8824307142719476
111.317,335.7264161922066,126169.8115,322.5,0.0,0.16991631496104595,0.2529960318128701,335.7264161922066,-0.8796482885624073
112.9,335.7183229571914,125998.5005,321.5,0.3067555912276851,0.15252913742265842,0.11861421282401352,335.7183229571914,-0.8877415235776311
114.483,335.7126488593313,125983.4255,323,0.21506372179763367,0.1560110204757226,0.08862893284856455,335.7126488593313,-0.8934156214377253
116.083,335.7219135418799,125783.0155,321,0.0,0.08234366678703268,0.13291579710578816,335.7219135418799,-0.8841509388890927
117.667,335.7039041277359,125699.2205,322.5,0.6821747781835737,0.10707851329744454,0.1036268068877213,335.7039041277359,-0.902160353033139
119.25,335.709470634863,125517.7995,322,0.0,0.09929676364422159,0.16584066898144556,335.709470634863,-0.8965938459060112
120.833,335.7036887218088,125458.577,323,0.21915021051900127,0.09947543894442526,0.0680784295200283,335.7036887218088,-0.9023757589602042
122.417,335.702144731929,125365.9935,324,0.058484465143643756,0.10392096897984988,0.04900069817327335,335.702144731929,-0.9039197488399964
124.017,335.7044022916187,125213.1565,321.5,0.0,0.09026608504785297,0.12020866724218138,335.7044022916187,-0.9016621891503291
125.6,335.6919319427111,125075.0995,321,0.4726600975710965,0.10269124472220065,0.12600155876975805,335.6919319427111,-0.9141325380579133
127.183,335.6969017773166,124948.668,321.5,0.0,0.17905606511182226,0.13824038061949295,335.6969017773166,-0.9091627034524095
128.767,335.6873179113636,124841.035,323,0.3630252254925993,0.11375412453046906,0.09252130083297061,335.6873179113636,-0.918746569405414
130.367,335.692070024279,124726.414,322.5,0.0,0.05250237636245069,0.12355651223253972,335.692070024279,-0.913994456490002
131.95,335.6817515027107,124681.8275,321,0.39109999627195857,0.0,0.10258021644114024,335.6817515027107,-0.9243129780583104
133.55,335.6843098919111,124511.9255,321.5,0.0,0.013725111677586848,0.0,335.6843098919111,-0.9217545888579366
135.133,335.688176020775,124371.9565,322,0.0,0.0525133051054648,0.0,335.688176020775,-0.9178884599940034
136.717,335.6915147763742,124299.312,321.5,0.0,0.03864185116109233,0.012991601480678128,335.6915147763742,-0.9145497043948012
138.283,335.6814255889544,124152.7005,321,0.3865589049729621,0.07912622453564216,0.19164130736908191,335.6814255889544,-0.9246388918145954
139.883,335.6751789943253,124120.2715,322.5,0.234247298592999,0.09008897951108055,0.16006029151424173,335.6751789943253,-0.9308854864437421
141.467,335.6770831468041,123940.15,322,0.0,0.11132625470064289,0.01233774808764565,335.6770831468041,-0.9289813339649413
143.05,335.6829451344904,123908.9485,321.5,0.0,0.028158457316687403,0.0,335.6829451344904,-0.9231193462786109
144.633,335.6753489416655,123818.846,321,0.2879163420684421,0.0034574619487314135,0.019346998157374173,335.6753489416655,-0.9307155391035167
146.217,335.6718299319655,123715.379,321.5,0.13329582197076276,0.044205118648113745,0.038202125143520504,335.6718299319655,-0.9342345488035448
147.8,335.6736111486542,123617.625,322,0.0,0.09290665345293629,0.03052421732706989,335.6736111486542,-0.9324533321148465
