Process Time [min],Average emission wavelength [nm],Integral,missing,diff_AEW_raw,diff_AEW_sgol,diff_AEW_loess,AEW_adapted,dAEW_adapted
0.4,336.6710006331822,279478.425,,2.741681710828191,2.40505423053818,2.678939370020379,336.6710006331822,0.0
1.96667,336.5994121250838,275526.835,,2.741681710828191,2.40505423053818,2.678939370020379,336.5994121250838,-0.07158850809838668
3.55,336.5469934131816,272315.13,,1.9863974750251072,2.1312623379171955,2.1947288970171765,336.5469934131816,-0.1240072200005784
5.15,336.4923613588768,269161.29,,2.048702036430682,1.7647836917440642,1.8137610892660048,336.4923613588768,-0.1786392743053966
6.71667,336.4522327432712,266346.7,,1.5368373277933813,1.5097326737648917,1.569514339252037,336.4522327432712,-0.2187678899109642
8.3,336.4208054601149,263563.505,,1.1909311320955371,1.3006483518348453,1.4515883699288494,336.4208054601149,-0.2501951730673113
9.88333,336.3778866276976,260996.66,,1.626401284026156,1.267537470034228,1.2776597020254292,336.3778866276976,-0.2931140054845969
11.45,336.3472254432039,258795.2,,1.1742556311289956,1.2370679864147738,1.2305613854790614,336.3472254432039,-0.3237751899782779
13.0333,336.3256996252579,256453.655,,0.8157323796874315,1.1545582813848807,1.2007965897384438,336.3256996252579,-0.3453010079242631
14.6167,336.2817733507321,254071.665,,1.6645045292081093,1.0389595929282534,1.1399028268256495,336.2817733507321,-0.3892272824500651
16.2,336.2601823998971,252008.525,,0.8182006253412938,0.9552381494993926,1.0706749844172894,336.2601823998971,-0.4108182332851129
17.7667,336.236048391171,250091.975,,0.9242615201159262,0.910696520021526,0.8772277070240264,336.236048391171,-0.43495224201120664
19.35,336.2177478046771,248259.125,,0.693510509462452,0.908931342725587,0.7762215805726242,336.2177478046771,-0.45325282850507165
20.9167,336.1924932172965,246523.585,,0.9671763852925189,0.8769575788911945,0.9116327470811587,336.1924932172965,-0.47850741588570145
22.5,336.1696510359025,245002.46,,0.8656166763330628,0.9392139285694054,0.9586484855722723,336.1696510359025,-0.5013495972796704
24.0833,336.1378923604148,243003.765,,1.2035119871549942,0.6049161702242236,0.864872570088167,336.1378923604148,-0.5331082727673788
25.6667,336.1303094567073,241412.725,,0.287340041966155,0.5180400001996988,0.6981714346924734,336.1303094567073,-0.5406911764748656
27.25,336.1094498960043,240094.25,,0.7904842052549225,0.6417900338125112,0.48727006031496245,336.1094498960043,-0.5615507371778676
28.8167,336.0997694380547,238852.755,,0.37073305481437013,0.8680216450338877,0.0,336.0997694380547,-0.5712311951274955
30.4,336.0843200640555,237545.83,,0.5854622875974622,1.0276409779307376,3.2308214789037777,336.0843200640555,-0.5866805691267132
31.9667,336.0705118944264,236274.662,,0.5288122663854338,1.0706621756032704,5.84257830641468,336.0705118944264,-0.6004887387558142
32.350032999999996,335.9649252795533,235523.5795,,16.52661495979688,3.6049364237527755,5.810940914196408,335.9649252795533,-0.7060753536288757
33.9167,336.0063089237926,233928.545,,0.0,0.5822654329393402,3.599360928976637,336.0063089237926,-0.664691709389615
35.50003,335.9925384434604,232480.1415,,0.5218298269671401,0.40740155976496023,0.0,335.9925384434604,-0.678462189721813
37.0667,335.9876196043789,231803.589,,0.18838067039581027,0.25708890335760165,0.3742708041896208,335.9876196043789,-0.6833810288032964
38.63337,335.9720055895898,230784.894,,0.5979822728115199,0.23769825076384815,0.5860793613015574,335.9720055895898,-0.6989950435923902
40.20003,335.9618901741616,229956.2995,,0.38740053725151863,0.3544747347321493,0.5637168647778594,335.9618901741616,-0.7091104590205646
41.78337,335.9411392204295,229117.7075,,0.7863486199608581,0.43040931983158676,0.36887262635923435,335.9411392204295,-0.7298614127527117
43.35,335.9441323974562,228120.0115,,0.0,0.1451996763405926,0.10377953982406041,335.9441323974562,-0.7268682357259877
44.9334,335.9513942002277,227282.4795,,0.0,0.1928442025865366,0.05983795634020339,335.9513942002277,-0.7196064329544924
46.5,335.9367566819932,226965.307,,0.5606096604560767,0.1999164114393998,0.19983962222105234,335.9367566819932,-0.7342439511890007
48.0667,335.9256121102421,226311.69,,0.42680430526816426,0.3318158488016994,0.4207131055897406,335.9256121102421,-0.7453885229400612
49.65,335.9199751901697,225640.917,,0.2136140998843252,0.35550045955302484,0.3777298105948148,335.9199751901697,-0.7510254430125087
51.2167,335.9078260818049,225135.73,,0.46527510173413184,0.29568178710602283,0.251982871807364,335.9078260818049,-0.7631745513772898
52.8,335.9074151720817,224599.479,,0.015571643650616408,0.2135704979416882,0.2650892883822493,335.9074151720817,-0.7635854611004902
54.366699999999994,335.8954524769121,223933.257,,0.45813602487724886,0.2834011531223861,0.0968796068748361,335.8954524769121,-0.7755481562700766
55.9334,335.8868536116677,223430.7835,,0.3293112367819135,0.40507307179235374,0.7753709816329746,335.8868536116677,-0.7841470215145137
57.5167,335.8905129361017,222843.8225,,0.0,0.45686243354548955,1.5218703674628387,335.8905129361017,-0.7804876970805026
57.9167,335.8640529981424,222637.874,,3.968990693888915,1.640285924006946,1.568362005857125,335.8640529981424,-0.8069476350397622
59.48337,335.8463691115908,222242.8595,,0.6772537886722102,0.3315975225473617,1.2269952962996058,335.8463691115908,-0.8246315215914137
61.05003,335.8484801010565,221657.6045,,0.0,0.1590830903645922,0.08091795935024493,335.8484801010565,-0.8225205321256794
62.63337,335.851617034119,221231.5305,,0.0,0.03379326274100964,0.0,335.851617034119,-0.819383599063201
64.2167,335.8463863794707,220911.791,,0.19821469870340097,0.01738078101033359,0.0,335.8463863794707,-0.824614253711502
65.78337,335.8478454273121,220822.8825,,0.0,0.10451382367633533,0.10309443576876198,335.8478454273121,-0.82315520587008
67.3667,335.8396448264995,220406.7115,,0.3107602639722345,0.2855928438851777,0.17737868040892124,335.8396448264995,-0.8313558066826658
68.9334,335.8364287927935,220084.6885,,0.12316462779075582,0.3174207154631857,0.33295335426089423,335.8364287927935,-0.8345718403886622
70.5167,335.8210795046747,219596.553,,0.5816694796504014,0.20361990581336648,0.3581971591471529,335.8210795046747,-0.8499211285075035
72.1,335.8131016093548,219365.042,,0.3023266084709807,0.2268420892939039,0.23332172837132248,335.8131016093548,-0.8578990238273718
73.66669999999999,335.8179734364748,219032.286,,0.0,0.2245623393134825,0.09212171377942013,335.8179734364748,-0.8530271967073872
75.25,335.8123443881796,219194.5275,,0.2133157946765925,0.1628787649555335,0.04801438403734437,335.8123443881796,-0.8586562450025781
76.8334,335.8092347191365,218684.957,,0.11783512857570017,0.09361794087062959,0.2780382799074914,335.8092347191365,-0.8617659140456908
78.41669999999999,335.798753222464,218214.4715,,0.39720192026245593,0.047683517822348906,0.25302021763849325,335.798753222464,-0.8722474107182165
80,335.7893306685674,217925.788,,0.3570727176114506,0.010061010991494267,0.0,335.7893306685674,-0.8816699646147867
81.5834,335.8135486196976,217918.028,,0.0,0.05790872828289175,0.0,335.8135486196976,-0.8574520134845898
83.16669999999999,335.8041612663084,217913.6095,,0.3557387755639148,0.04574701562036922,0.1382206771735639,335.8041612663084,-0.8668393668737622
84.75,335.798920710565,217578.5,,0.19859366172166437,0.11710557567037543,0.6962439141923369,335.798920710565,-0.8720799226171607
85.133333,335.789462339702,215839.4315,,1.480441944158424,0.7703675967789732,0.7203562922913989,335.789462339702,-0.8815382934801619
86.71667,335.7877993818404,215636.8115,,0.06301720461178974,0.1998410569933759,0.5143060296354633,335.7877993818404,-0.8832012513418022
88.28333,335.7782304778653,215037.909,,0.3664702223236801,0.2389538725459633,0.0,335.7782304778653,-0.8927701553168959
89.86667,335.7921465848842,214801.535,,0.0,0.20371636386072378,0.12639812124197647,335.7921465848842,-0.878854048297967
91.45,335.7677990239361,214671.3605,,0.9226463572893286,0.14521134262626548,0.199048874490245,335.7677990239361,-0.9032016092460822
93.01667,335.7698317394493,214654.9705,,0.0,0.018617304027390934,0.308528716284286,335.7698317394493,-0.9011688937329154
94.58333,335.7655788670234,214468.1725,,0.1628766583380919,0.0,0.10432630928320918,335.7655788670234,-0.9054217661587813
96.1667,335.7615353439022,214213.3195,,0.15322469623135176,0.013584901930246305,0.0,335.7615353439022,-0.9094652892799786
97.75,335.7849837531543,213530.872,,0.0,0.07775984829758616,0.0,335.7849837531543,-0.8860168800279098
99.3167,335.7762663556213,213696.3825,,0.33385067465227597,0.135284640041934,0.18311614747167937,335.7762663556213,-0.8947342775608718
100.88329999999999,335.7506937437103,213796.5095,,0.9794183037534341,0.22951515706951583,0.4453923551409389,335.7506937437103,-0.920306889471874
102.4667,335.7474296630704,213489.793,,0.12368626903730415,0.17802600169259455,0.3259529272148711,335.7474296630704,-0.9235709701117685
104.05,335.7552469273713,213358.422,,0.0,0.1835675593789103,0.0,335.7552469273713,-0.9157537058109142
105.61670000000001,335.7530722215986,213140.9595,,0.08328483204270395,0.07868571872005371,0.0,335.7530722215986,-0.9179284115836026
107.2,335.7498093764776,212911.913,,0.12364726031760467,0.0,0.12539936096797533,335.7498093764776,-0.921191256704617
108.7667,335.745028249495,212569.0425,,0.18310309501053784,0.09469579461480838,0.22355064785091372,335.745028249495,-0.9259723836871672
110.35,335.7376323767005,212901.749,,0.2802705536986654,0.1772706450866677,0.033171069771469774,335.7376323767005,-0.9333682564816854
111.9333,335.7391741307666,212698.27,,0.0,0.11813147610198493,0.339840505311372,335.7391741307666,-0.9318265024155608
113.5,335.7468112980567,212475.498,,0.0,0.0628276617345622,0.7785778230208962,335.7468112980567,-0.9241893351255044
113.9,335.7304088930755,213847.1135,,2.4603607471788678,0.21746746073114162,0.7953768700931505,335.7304088930755,-0.9405917401066972
115.46667,335.7271963906778,213852.074,,0.12303174494973129,0.08837719465766636,0.521981774248161,335.7271963906778,-0.9438042425043704
117.05,335.7371728194527,213738.038,,0.0,0.003040222727140568,0.0,335.7371728194527,-0.9338278137294651
118.61667,335.7350931525192,213527.1545,,0.07964664926980632,0.0,0.0,335.7350931525192,-0.9359074806629906
120.2,335.7310738620989,213707.4805,,0.15231027342148573,0.0,0.03548490258168613,335.7310738620989,-0.9399267710832646
121.78333,335.7333211700455,213475.505,,0.0,0.0,0.0,335.7333211700455,-0.9376794631367034
123.35,335.7369457194614,213318.7,,0.0,0.1031695391411761,0.0,335.7369457194614,-0.9340549137207859
124.9333,335.7428192862117,213135.4135,,0.0,0.1824523372806469,0.09875480481500531,335.7428192862117,-0.9281813469704616
126.5,335.7184676934582,213013.354,,0.9325943481278932,0.20255648978305654,0.28636053767036174,335.7184676934582,-0.9525329397239943
128.0833,335.7235331736665,212657.2545,,0.0,0.20975560192830967,0.3282755656499603,335.7235331736665,-0.9474674595156785
129.6667,335.7097430440841,212241.416,,0.5225513293819483,0.16783073671324494,0.1568030494785262,335.7097430440841,-0.9612575890980679
131.23329999999999,335.7170867940398,212173.0715,,0.0,0.09038873844175194,0.03524024651306945,335.7170867940398,-0.9539138391423876
132.8,335.7096412625703,212110.984,,0.28514194687559924,0.032753869120684904,0.01896761104575262,335.7096412625703,-0.9613593706118877
134.3833,335.7155706483472,212058.716,,0.0,0.03886737428452312,0.06704413899733641,335.7155706483472,-0.955429984835007
135.95,335.7062711498462,211433.1685,,0.3561434289007315,0.09330438189688316,0.11433711694064641,335.7062711498462,-0.9647294833359865
137.5333,335.7051039506844,211545.5455,,0.04423163627049286,0.005520367128080364,0.07887721493432309,335.7051039506844,-0.965896682497771
139.1,335.7073980602019,211602.056,,0.0,0.013351722834476568,0.024213698313133136,335.7073980602019,-0.9636025729802782
140.6667,335.7075586423989,211503.0005,,0.0,0.0,0.0,335.7075586423989,-0.9634419907832807
